LidarMCplusplus.cpp input file:
Radius(m),0.15
FOV(rad),0.174533
a(m^-1),0.0425791
b(m^-1),0.104066
c(m^-1),0.146645
Dmin,0.1
Dmax,100
k,1e+21
Junge,4
bulk ref index,(1.05,0.005)
#photons,1000000
distance,signal,co,cross
0,41.4322,3.14116e-15,41.4322,-2.07823e-15
0.0034599,25.2411,0.000551727,25.2411,0.00644654
0.00691981,13.6191,0.000945189,13.6191,0.00667747
0.0103797,9.45477,0.00119217,9.45476,0.00641361
0.0138396,7.28893,0.00135029,7.28892,0.00612284
0.0172995,5.94258,0.0014459,5.94257,0.00584886
0.0207594,5.01241,0.00149499,5.0124,0.00559907
0.0242193,4.32341,0.00150782,4.3234,0.00537246
0.0276792,3.78743,0.00149266,3.78742,0.0051659
0.0311391,3.35531,0.00145585,3.3553,0.00497588
0.034599,2.99738,0.00140224,2.99737,0.00479919
0.0380589,2.69478,0.00133529,2.69476,0.00463262
0.0415188,2.4348,0.00125837,2.43479,0.00447473
0.0449787,2.20868,0.00117399,2.20866,0.00432372
0.0484387,2.01009,0.00108418,2.01008,0.00417968
0.0518986,1.83433,0.000990884,1.83432,0.00404119
0.0553585,1.67796,0.000894973,1.67794,0.0039083
0.0588184,1.53802,0.000798783,1.538,0.00377856
0.0622783,1.41238,0.000701671,1.41236,0.00365061
0.0657382,1.29888,0.000606461,1.29887,0.00352662
0.0691981,1.19634,0.000512333,1.19632,0.00340904
0.072658,1.10368,0.000420336,1.10367,0.00329642
0.0761179,1.01939,0.000331406,1.01937,0.00317928
0.0795778,0.942666,0.000244101,0.942647,0.00307144
0.0830377,0.87291,0.000161914,0.872891,0.00296797
0.0864976,0.80915,8.13837e-05,0.809131,0.00285971
0.0899575,0.751016,4.61751e-06,0.750997,0.00276606
0.0934174,0.69771,-6.70746e-05,0.697691,0.00266474
0.0968773,0.648991,-0.000137676,0.648972,0.00257391
0.100337,0.604368,-0.000203418,0.604349,0.0024824
0.103797,0.563138,-0.00026388,0.563119,0.00239682
0.107257,0.525672,-0.000325574,0.525652,0.00230844
0.110717,0.490896,-0.000379452,0.490877,0.00223427
0.114177,0.458866,-0.00043067,0.458846,0.00214896
0.117637,0.429673,-0.000482459,0.429653,0.00207655
0.121097,0.402363,-0.000527295,0.402343,0.00200461
0.124557,0.377258,-0.000568605,0.377239,0.00193253
0.128016,0.35416,-0.000611761,0.354141,0.00186576
0.131476,0.332779,-0.000649803,0.33276,0.00180178
0.134936,0.312763,-0.000681476,0.312743,0.00174094
0.138396,0.29434,-0.00071636,0.294321,0.00167572
0.141856,0.277492,-0.000749894,0.277472,0.00162075
0.145316,0.261426,-0.000773919,0.261407,0.0015706
0.148776,0.246539,-0.000799639,0.246519,0.00150989
0.152236,0.2331,-0.000828812,0.23308,0.00145738
0.155696,0.220295,-0.000850108,0.220275,0.00141731
0.159156,0.208108,-0.000866962,0.208088,0.00136619
0.162615,0.197094,-0.000887992,0.197074,0.00131439
0.166075,0.186945,-0.000910055,0.186925,0.00127528
0.169535,0.17707,-0.000923304,0.177049,0.00123907
0.172995,0.167868,-0.000935243,0.167848,0.00119269
0.176455,0.159464,-0.000950704,0.159443,0.00115017
0.179915,0.151677,-0.000967553,0.151656,0.00111771
0.183375,0.1441,-0.000976456,0.144079,0.00108527
0.186835,0.136984,-0.000983179,0.136963,0.00104763
0.190295,0.130436,-0.000993167,0.130415,0.00101101
0.193755,0.124408,-0.00100649,0.124387,0.000980093
0.197215,0.118606,-0.00101401,0.118585,0.000953696
0.200674,0.112993,-0.00101578,0.112972,0.000924642
0.204134,0.107799,-0.00102062,0.107777,0.000893258
0.207594,0.10302,-0.00102934,0.102998,0.000862442
0.211054,0.0985879,-0.00103814,0.0985656,0.00083828
0.214514,0.0941966,-0.00103849,0.0941742,0.000818825
0.217974,0.0899886,-0.00103785,0.0899659,0.000792765
0.221434,0.0860885,-0.00104047,0.0860656,0.000766176
0.224894,0.0825677,-0.00104782,0.0825446,0.000738391
0.228354,0.0792543,-0.00105273,0.0792311,0.000721218
0.231814,0.0758781,-0.00104942,0.0758546,0.000706618
0.235273,0.0726647,-0.00104668,0.0726411,0.00068462
0.238733,0.0696779,-0.00104712,0.0696539,0.000660755
0.242193,0.0670173,-0.00105224,0.066993,0.000635603
0.245653,0.0645289,-0.00105594,0.0645046,0.000622167
0.249113,0.061947,-0.00105173,0.0619225,0.000612356
0.252573,0.0594189,-0.00104598,0.0593941,0.000595181
0.256033,0.0570933,-0.00104436,0.0570681,0.000574907
0.259493,0.0549878,-0.00104593,0.0549624,0.000551456
0.262953,0.0531105,-0.00104995,0.0530849,0.000536401
0.266413,0.0511848,-0.00104784,0.0511591,0.000530322
0.269872,0.0491943,-0.00104031,0.0491683,0.000521063
0.273332,0.0473188,-0.00103536,0.0472923,0.00050388
0.276792,0.0455986,-0.0010333,0.0455718,0.000485123
0.280252,0.044077,-0.00103476,0.04405,0.000465776
0.283712,0.0426779,-0.00103672,0.0426508,0.000456521
0.287172,0.0412055,-0.00103261,0.0411782,0.000452744
0.290632,0.0396725,-0.00102412,0.0396448,0.000445732
0.294092,0.0382398,-0.00101857,0.0382117,0.000430098
0.297552,0.0369389,-0.00101585,0.0369104,0.000414202
0.301012,0.035773,-0.00101559,0.0357443,0.000397366
0.304472,0.0347203,-0.00101688,0.0346914,0.000388492
0.307931,0.0336281,-0.00101375,0.0335991,0.000386235
0.311391,0.0324644,-0.00100581,0.0324351,0.000383102
0.314851,0.0313117,-0.000997697,0.0312819,0.000371596
0.318311,0.0303027,-0.000994332,0.0302724,0.000357484
0.321771,0.0293588,-0.000991487,0.0293282,0.00034369
0.325231,0.0285364,-0.000991767,0.0285057,0.000332004
0.328691,0.0277487,-0.000991352,0.0277178,0.000327413
0.332151,0.0269014,-0.000986035,0.0268702,0.000327134
0.335611,0.0260008,-0.000977411,0.0259692,0.000324095
0.339071,0.0251359,-0.000970006,0.0251038,0.000312676
0.34253,0.0243888,-0.000966772,0.0243563,0.000300872
0.34599,0.0236789,-0.0009635,0.023646,0.000289689
0.34945,0.0230578,-0.000962969,0.0230248,0.000279763
0.35291,0.0224695,-0.000962247,0.0224363,0.00027552
0.35637,0.0218396,-0.000957606,0.0218061,0.000276318
0.35983,0.0211595,-0.000949708,0.0211256,0.000275165
0.36329,0.0204746,-0.000941234,0.0204401,0.000267584
0.36675,0.0198905,-0.000937184,0.0198556,0.000256238
0.37021,0.0193453,-0.000933723,0.01931,0.000247778
0.37367,0.018839,-0.000931148,0.0188035,0.00023837
0.37713,0.0183928,-0.000930612,0.018357,0.000232188
0.380589,0.0179515,-0.000928692,0.0179155,0.000230923
0.384049,0.0174549,-0.000922598,0.0174186,0.000232297
0.387509,0.0169322,-0.000914649,0.0168955,0.000230807
0.390969,0.0164189,-0.000907016,0.0163816,0.000223109
0.394429,0.0159897,-0.000903448,0.015952,0.000213619
0.397889,0.0155817,-0.000899948,0.0155436,0.000207051
0.401349,0.0151956,-0.000896956,0.0151571,0.000199399
0.404809,0.0148608,-0.000896125,0.014822,0.000193698
0.408269,0.0145331,-0.00089437,0.0144941,0.000192201
0.411729,0.014168,-0.000889322,0.0141287,0.000194298
0.415188,0.0137759,-0.000882232,0.0137362,0.000193908
0.418648,0.0133739,-0.000874332,0.0133336,0.000189803
0.422108,0.0130228,-0.000869318,0.0129821,0.00018111
0.425568,0.0127182,-0.000866417,0.0126771,0.000175017
0.429028,0.0124127,-0.000862713,0.0123713,0.000169859
0.432488,0.0121368,-0.00086052,0.012095,0.000163251
0.435948,0.0118923,-0.000859466,0.0118501,0.000159696
0.439408,0.0116451,-0.000857171,0.0116028,0.000159676
0.442868,0.0113614,-0.000851718,0.0113187,0.000161781
0.446328,0.0110641,-0.000845046,0.011021,0.000161377
0.449787,0.0107593,-0.000837715,0.0107155,0.000157912
0.453247,0.0104922,-0.000832822,0.010448,0.000150574
0.456707,0.0102656,-0.000830131,0.010221,0.0001453
0.460167,0.010035,-0.000826564,0.00998996,0.000141564
0.463627,0.00981728,-0.00082371,0.00977182,0.000136117
0.467087,0.00963306,-0.000822673,0.0095873,0.000132039
0.470547,0.00945018,-0.00082085,0.00940416,0.0001311
0.474007,0.00925242,-0.000817181,0.00920611,0.000133084
0.477467,0.00902747,-0.000811121,0.00898073,0.000133843
0.480927,0.00880015,-0.000804667,0.00875291,0.000133112
0.484387,0.00857574,-0.000798388,0.00852794,0.000128773
0.487846,0.00838701,-0.000794695,0.00833872,0.000122444
0.491306,0.00821912,-0.000792048,0.00817047,0.000118965
0.494766,0.00804482,-0.000788567,0.00799572,0.000116048
0.498226,0.00788252,-0.000785938,0.00783294,0.000111323
0.501686,0.00774632,-0.000784899,0.0076964,0.000107925
0.505146,0.00760969,-0.000783123,0.00755948,0.000107238
0.508606,0.00746454,-0.000780014,0.00741403,0.000108851
0.512066,0.00729576,-0.000774565,0.00724483,0.00011019
0.515526,0.00712641,-0.000768876,0.00707502,0.000109835
0.518986,0.00695219,-0.000762706,0.00690023,0.000107528
0.522445,0.00679781,-0.00075824,0.00674531,0.000102528
0.525905,0.00667126,-0.000755854,0.00661835,9.82831e-05
0.529365,0.00654229,-0.000752862,0.00648897,9.63057e-05
0.532825,0.00641132,-0.000749617,0.00635748,9.34827e-05
0.536285,0.00629737,-0.000747771,0.00624307,8.92916e-05
0.539745,0.00619804,-0.000746735,0.00614339,8.72522e-05
0.543205,0.00609512,-0.000744825,0.00604015,8.71206e-05
0.546665,0.00598452,-0.000741682,0.00592924,8.882e-05
0.550125,0.00585649,-0.000736615,0.00580076,9.00011e-05
0.553585,0.00572922,-0.000731449,0.00567302,8.97346e-05
0.557045,0.00559746,-0.000725792,0.00554071,8.82595e-05
0.560504,0.00547844,-0.000721426,0.00542114,8.4347e-05
0.563964,0.00538092,-0.00071897,0.00532316,8.02474e-05
0.567424,0.00528629,-0.000716437,0.00522812,7.86484e-05
0.570884,0.00518684,-0.000713334,0.00512816,7.68725e-05
0.574344,0.00509372,-0.000710882,0.00503449,7.35905e-05
0.577804,0.00501724,-0.000709847,0.00495758,7.06971e-05
0.581264,0.00494284,-0.000708571,0.00488282,6.99844e-05
0.584724,0.00486493,-0.000706497,0.00480458,7.03817e-05
0.588184,0.00477774,-0.000703021,0.00471703,7.22078e-05
0.591644,0.00468028,-0.000698265,0.0046191,7.2901e-05
0.595103,0.00458488,-0.000693571,0.00452323,7.27229e-05
0.598563,0.00448572,-0.000688465,0.00442352,7.14319e-05
0.602023,0.00439674,-0.000684551,0.00433396,6.81742e-05
0.605483,0.00432332,-0.000682221,0.00426006,6.46865e-05
0.608943,0.00425331,-0.000679971,0.00418963,6.34183e-05
0.612403,0.0041785,-0.00067711,0.00411431,6.22134e-05
0.615863,0.00410618,-0.000674582,0.00404141,5.98094e-05
0.619323,0.00404578,-0.000673308,0.0039805,5.68743e-05
0.622783,0.00399147,-0.000672398,0.00392578,5.56747e-05
0.626243,0.0039343,-0.000670798,0.00386821,5.57071e-05
0.629702,0.00387472,-0.000668522,0.00380828,5.67063e-05
0.633162,0.00380505,-0.000664749,0.00373819,5.82298e-05
0.636622,0.0037319,-0.000660421,0.00366457,5.84365e-05
0.640082,0.00365993,-0.00065609,0.00359212,5.84185e-05
0.643542,0.00358582,-0.000651562,0.00351743,5.70611e-05
0.647002,0.00352048,-0.000648206,0.00345152,5.42681e-05
0.650462,0.00346631,-0.000646134,0.00339686,5.14569e-05
0.653922,0.00341407,-0.000644061,0.00334418,5.05404e-05
0.657382,0.00335778,-0.000641419,0.00328736,4.96987e-05
0.660842,0.0033027,-0.000639,0.00323167,4.78894e-05
0.664302,0.00325536,-0.000637572,0.00318374,4.531e-05
0.667761,0.00321504,-0.000636835,0.00314296,4.38253e-05
0.671221,0.0031737,-0.000635673,0.00310118,4.36246e-05
0.674681,0.00313038,-0.000633939,0.00305745,4.39921e-05
0.678141,0.00308281,-0.000631285,0.0030095,4.54114e-05
0.681601,0.00302856,-0.000627546,0.00295479,4.63658e-05
0.685061,0.00297455,-0.000623711,0.0029003,4.6371e-05
0.688521,0.00291962,-0.000619652,0.00284488,4.64306e-05
0.691981,0.00286475,-0.000615715,0.00278941,4.5016e-05
0.695441,0.00281709,-0.000612874,0.00274116,4.26319e-05
0.698901,0.00277727,-0.000611048,0.00270084,4.04114e-05
0.70236,0.00273822,-0.000609129,0.00266133,3.97837e-05
0.70582,0.00269586,-0.000606686,0.00261842,3.92185e-05
0.70928,0.00265408,-0.000604402,0.00257599,3.78569e-05
0.71274,0.00261719,-0.000602891,0.00253848,3.57183e-05
0.7162,0.00258664,-0.000602196,0.00250739,3.40614e-05
0.71966,0.00255675,-0.000601382,0.00247701,3.35885e-05
0.72312,0.00252518,-0.000600071,0.00244497,3.3724e-05
0.72658,0.00249242,-0.00059827,0.00241181,3.44866e-05
0.73004,0.00245438,-0.000595411,0.00237333,3.57659e-05
0.7335,0.00241348,-0.000591974,0.00233195,3.62971e-05
0.73696,0.00237353,-0.000588546,0.00229153,3.63872e-05
0.740419,0.00233166,-0.000584777,0.00224915,3.64296e-05
0.743879,0.00229105,-0.000581343,0.00220791,3.51062e-05
0.747339,0.00225605,-0.000578894,0.0021723,3.31056e-05
0.750799,0.00222649,-0.000577251,0.00214222,3.13066e-05
0.754259,0.00219758,-0.000575531,0.00211282,3.08421e-05
0.757719,0.00216584,-0.00057329,0.00208053,3.05227e-05
0.761179,0.00213399,-0.000571099,0.00204803,2.9567e-05
0.764639,0.0021051,-0.000569494,0.00201846,2.78909e-05
0.768099,0.00208115,-0.000568705,0.00199389,2.61781e-05
0.771559,0.0020594,-0.000568147,0.00197158,2.53975e-05
0.775018,0.00203691,-0.00056729,0.00194855,2.52783e-05
0.778478,0.00201346,-0.000566028,0.00192461,2.5533e-05
0.781938,0.0019882,-0.000564169,0.00189892,2.6512e-05
0.785398,0.00195903,-0.000561449,0.00186925,2.74913e-05
0.788858,0.00192877,-0.000558412,0.00183851,2.78595e-05
0.792318,0.00189899,-0.000555311,0.00180828,2.80856e-05
0.795778,0.00186738,-0.000551859,0.00177613,2.81935e-05
0.799238,0.00183683,-0.000548739,0.00174496,2.71315e-05
0.802698,0.00181058,-0.000546522,0.00171807,2.54677e-05
0.806158,0.00178822,-0.000544996,0.00169514,2.39142e-05
0.809617,0.00176722,-0.000543554,0.00167362,2.34084e-05
0.813077,0.00174379,-0.000541558,0.00164964,2.33112e-05
0.816537,0.00171946,-0.000539416,0.00162467,2.28081e-05
0.819997,0.00169659,-0.000537665,0.00160109,2.16474e-05
0.823457,0.001677,-0.000536624,0.00158079,2.00668e-05
0.826917,0.00166047,-0.000536121,0.00156361,1.89018e-05
0.830377,0.00164435,-0.000535594,0.00154687,1.8455e-05
0.833837,0.00162784,-0.000534854,0.00152978,1.83999e-05
0.837297,0.00161075,-0.000533767,0.00151216,1.87098e-05
0.840757,0.00159177,-0.000532052,0.00149271,1.96449e-05
0.844217,0.00157016,-0.000529674,0.00147059,2.04452e-05
0.847676,0.00154804,-0.000527069,0.00144796,2.08084e-05
0.851136,0.00152596,-0.000524311,0.00142542,2.11186e-05
0.854596,0.00150245,-0.000521197,0.0014014,2.14461e-05
0.858056,0.00147882,-0.000518159,0.00137715,2.08684e-05
0.861516,0.00145821,-0.00051592,0.00135587,1.95305e-05
0.864976,0.0014408,-0.000514408,0.00133779,1.81246e-05
0.868436,0.00142546,-0.00051324,0.00132191,1.7296e-05
0.871896,0.00140899,-0.000511677,0.0013049,1.72778e-05
0.875356,0.00139092,-0.000509694,0.00128622,1.72167e-05
0.878816,0.00137263,-0.000507722,0.00126725,1.66707e-05
0.882275,0.00135598,-0.000506243,0.00124983,1.55501e-05
0.885735,0.00134204,-0.000505443,0.00123515,1.41987e-05
0.889195,0.00133001,-0.000505027,0.00122241,1.32885e-05
0.892655,0.00131809,-0.00050457,0.0012098,1.28927e-05
0.896115,0.00130626,-0.000504057,0.0011973,1.27366e-05
0.899575,0.00129416,-0.000503289,0.0011846,1.29327e-05
0.903035,0.00128073,-0.000501966,0.00117065,1.36982e-05
0.906495,0.00126513,-0.000499998,0.0011545,1.44863e-05
0.909955,0.00124916,-0.00049788,0.00113797,1.48596e-05
0.913415,0.00123316,-0.000495583,0.00112148,1.51861e-05
0.916875,0.00121629,-0.000492933,0.00110415,1.56862e-05
0.920334,0.00119822,-0.000489989,0.00108551,1.5817e-05
0.923794,0.00118094,-0.000487352,0.00106758,1.51105e-05
0.927254,0.00116635,-0.000485557,0.00105227,1.38712e-05
0.930714,0.00115417,-0.000484394,0.0010394,1.27216e-05
0.934174,0.00114306,-0.000483393,0.0010277,1.21999e-05
0.937634,0.00113083,-0.000481965,0.00101489,1.22842e-05
0.941094,0.00111733,-0.000480132,0.00100078,1.23467e-05
0.944554,0.00110338,-0.000478193,0.000986142,1.20307e-05
0.948014,0.00109047,-0.000476657,0.000972451,1.11539e-05
0.951474,0.00107969,-0.000475791,0.000960847,9.96577e-06
0.954933,0.00107064,-0.000475386,0.000951016,9.03219e-06
0.958393,0.00106187,-0.000474991,0.000941497,8.59298e-06
0.961853,0.00105312,-0.000474588,0.000931972,8.27013e-06
0.965313,0.00104484,-0.000474253,0.00092295,8.14847e-06
0.968773,0.00103618,-0.000473604,0.000913661,8.50663e-06
0.972233,0.00102588,-0.00047228,0.00090279,9.3249e-06
0.975693,0.00101413,-0.000470477,0.000890429,9.88982e-06
0.979153,0.00100282,-0.000468776,0.0008785,1.00991e-05
0.982613,0.00099144,-0.000466881,0.000866604,1.04884e-05
0.986073,0.000978929,-0.000464489,0.00085361,1.10804e-05
0.989532,0.000965446,-0.000461797,0.000839575,1.13417e-05
0.992992,0.000952148,-0.000459204,0.00082565,1.09854e-05
0.996452,0.000940496,-0.000457264,0.000813265,9.98183e-06
0.999912,0.000931278,-0.000456179,0.000803287,8.86865e-06
1.00337,0.00092326,-0.00045539,0.000794565,8.20419e-06
1.00683,0.000914906,-0.000454377,0.00078558,8.18416e-06
1.01029,0.000905473,-0.000452931,0.000775508,8.35452e-06
1.01375,0.000895207,-0.000451146,0.000764603,8.45455e-06
1.01721,0.000884668,-0.000449289,0.000753347,8.1484e-06
1.02067,0.000875143,-0.000447881,0.000742997,7.30333e-06
1.02413,0.000867489,-0.000447177,0.000734469,6.26537e-06
1.02759,0.000860997,-0.000446848,0.000727128,5.50062e-06
1.03105,0.000854572,-0.000446476,0.000719889,5.18558e-06
1.03451,0.000847938,-0.000446023,0.000712397,4.87717e-06
1.03797,0.000842145,-0.000445879,0.000705741,4.56559e-06
1.04143,0.000836505,-0.000445646,0.000699339,4.72882e-06
1.04489,0.000829735,-0.00044483,0.000691904,5.40927e-06
1.04835,0.000821309,-0.000443305,0.000682845,6.13775e-06
1.05181,0.000812732,-0.000441738,0.000673566,6.31591e-06
1.05527,0.000805116,-0.000440481,0.000665285,6.44433e-06
1.05873,0.00079691,-0.000438819,0.000656539,7.02101e-06
1.06219,0.000787332,-0.00043653,0.000646449,7.65714e-06
1.06565,0.000777285,-0.000434072,0.000635838,7.84906e-06
1.06911,0.000767389,-0.000431667,0.000625316,7.64323e-06
1.07257,0.000758357,-0.000429689,0.000615542,6.81553e-06
1.07603,0.000751644,-0.000428727,0.000607998,5.75143e-06
1.07949,0.000745967,-0.000428111,0.000601551,5.17308e-06
1.08295,0.000740136,-0.000427348,0.000595009,5.12661e-06
1.08641,0.000733482,-0.000426178,0.000587649,5.31927e-06
1.08987,0.000726277,-0.000424728,0.000579775,5.51953e-06
1.09333,0.000718364,-0.000422934,0.000571172,5.60191e-06
1.09679,0.000710503,-0.000421196,0.00056254,5.21532e-06
1.10025,0.000703766,-0.000420008,0.000554924,4.34013e-06
1.10371,0.000698542,-0.000419485,0.000548786,3.51445e-06
1.10717,0.000693927,-0.0004192,0.000543266,2.96331e-06
1.11063,0.000689194,-0.000418817,0.000537632,2.80515e-06
1.11409,0.000684126,-0.000418279,0.000531633,2.54871e-06
1.11755,0.000679939,-0.000418156,0.000526486,2.13155e-06
1.12101,0.00067634,-0.000418216,0.000521982,2.1783e-06
1.12447,0.00067188,-0.000417757,0.000516727,2.75333e-06
1.12793,0.000666126,-0.000416625,0.000510254,3.50494e-06
1.13139,0.000659535,-0.00041507,0.000502916,3.85272e-06
1.13485,0.000653843,-0.000413938,0.000496452,3.76228e-06
1.13831,0.000648762,-0.000413002,0.00049067,4.07169e-06
1.14177,0.000642544,-0.000411406,0.000483869,4.82176e-06
1.14523,0.000635207,-0.000409227,0.000475966,5.36957e-06
1.14869,0.000627855,-0.000407018,0.000468007,5.4987e-06
1.15215,0.00062053,-0.000404811,0.000460061,5.42197e-06
1.15561,0.000613555,-0.000402807,0.000452354,4.76373e-06
1.15907,0.000608521,-0.000401816,0.000446466,3.77978e-06
1.16253,0.000604532,-0.000401322,0.000441627,3.30251e-06
1.16599,0.000600372,-0.000400693,0.000436656,3.25844e-06
1.16945,0.000595723,-0.000399772,0.000431215,3.45568e-06
1.17291,0.000590648,-0.00039858,0.000425389,3.66551e-06
1.17637,0.000585141,-0.000397125,0.000419151,3.91485e-06
1.17983,0.000579103,-0.000395363,0.000412374,3.92398e-06
1.18329,0.000573334,-0.000393756,0.000405793,3.48376e-06
1.18675,0.000568621,-0.000392731,0.000400177,2.69266e-06
1.19021,0.000564884,-0.000392223,0.000395478,2.10233e-06
1.19367,0.000561496,-0.000391892,0.000391112,1.72961e-06
1.19713,0.000557973,-0.000391464,0.00038661,1.65838e-06
1.20059,0.00055414,-0.000390865,0.000381775,1.46823e-06
1.20405,0.000550917,-0.000390595,0.000377511,1.04239e-06
1.20751,0.000548467,-0.000390709,0.000374027,9.45725e-07
1.21097,0.000545621,-0.000390549,0.000370227,1.37468e-06
1.21443,0.000541919,-0.000389858,0.000365642,2.02629e-06
1.21789,0.000537343,-0.000388622,0.000360228,2.54637e-06
1.22135,0.000532756,-0.000387342,0.000354793,2.56884e-06
1.22481,0.000529027,-0.000386503,0.000350251,2.53857e-06
1.22827,0.000525348,-0.000385645,0.000345807,3.02939e-06
1.23173,0.000520727,-0.000384185,0.000340484,3.74092e-06
1.23519,0.000515413,-0.000382278,0.000334513,4.18515e-06
1.23865,0.000510068,-0.000380306,0.00032854,4.35768e-06
1.24211,0.00050465,-0.000378252,0.000322476,4.40516e-06
1.24557,0.000499335,-0.000376279,0.00031643,3.96978e-06
1.24903,0.000495188,-0.000374995,0.00031148,3.1683e-06
1.25249,0.000492016,-0.0003743,0.000307457,2.69227e-06
1.25595,0.000488978,-0.000373683,0.000303522,2.58157e-06
